Wavenumber,Intensity
650.4205,0.002114
652.2841,0.001307
654.1478,0.001071
656.0115,0.001288
657.8751,0.002347
659.7388,0.003070
661.6025,0.002270
663.4661,0.001354
665.3298,0.001411
667.1935,0.003720
669.0571,0.004295
670.9208,0.002040
672.7845,0.002090
674.6481,0.002002
676.5118,0.001636
678.3755,0.001534
680.2392,0.001610
682.1028,0.001167
683.9665,0.000959
685.8302,0.000749
687.6938,0.001030
689.5575,0.001302
691.4212,0.001213
693.2848,0.000893
695.1485,0.000898
697.0122,0.000681
698.8758,0.000594
700.7395,0.000774
702.6032,0.000665
704.4669,0.000493
706.3305,0.000762
708.1942,0.000712
710.0579,0.000408
711.9215,0.000512
713.7852,0.000832
715.6489,0.000933
717.5125,0.000799
719.3762,0.000777
721.2399,0.000538
723.1035,0.000254
724.9672,0.000528
726.8309,0.000495
728.6945,0.000245
730.5582,0.000158
732.4219,0.000261
734.2856,0.000392
736.1492,0.000362
738.0129,0.000205
739.8766,0.000195
741.7402,0.000265
743.6039,0.000320
745.4676,0.000400
747.3312,0.000397
749.1949,0.000302
751.0586,0.000305
752.9222,0.000191
754.7859,0.000156
756.6496,0.000245
758.5132,0.000222
760.3769,0.000192
762.2406,0.000245
764.1043,0.000201
765.9679,0.000275
767.8316,0.000329
769.6953,0.000269
771.5589,0.000293
773.4226,0.000352
775.2863,0.000405
777.1499,0.000493
779.0136,0.000436
780.8773,0.000488
782.7409,0.000668
784.6046,0.000854
786.4683,0.000963
788.3320,0.001016
790.1956,0.001057
792.0593,0.001178
793.9230,0.001284
795.7866,0.001419
797.6503,0.001231
799.5140,0.001116
801.3776,0.001337
803.2413,0.001334
805.1050,0.001149
806.9686,0.001176
808.8323,0.001245
810.6960,0.001342
812.5596,0.001265
814.4233,0.000985
816.2870,0.000872
818.1507,0.000887
820.0143,0.000897
821.8780,0.001032
823.7417,0.000949
825.6053,0.000740
827.4690,0.000612
829.3327,0.000648
831.1963,0.000686
833.0600,0.000587
834.9237,0.000531
836.7873,0.000648
838.6510,0.000611
840.5147,0.000469
842.3784,0.000430
844.2420,0.000462
846.1057,0.000476
847.9694,0.000466
849.8330,0.000397
851.6967,0.000412
853.5604,0.000438
855.4240,0.000422
857.2877,0.000259
859.1514,0.000086
861.0150,0.000069
862.8787,0.000172
864.7424,0.000224
866.6060,0.000189
868.4697,0.000093
870.3334,0.000161
872.1971,0.000210
874.0607,0.000264
875.9244,0.000301
877.7881,0.000354
879.6517,0.000368
881.5154,0.000370
883.3791,0.000422
885.2427,0.000370
887.1064,0.000285
888.9701,0.000304
890.8337,0.000322
892.6974,0.000325
894.5611,0.000299
896.4247,0.000280
898.2884,0.000265
900.1521,0.000214
902.0158,0.000174
903.8794,0.000194
905.7431,0.000198
907.6068,0.000139
909.4704,0.000061
911.3341,0.000050
913.1978,-0.000006
915.0614,-0.000002
916.9251,0.000033
918.7888,-0.000008
920.6524,-0.000032
922.5161,0.000049
924.3798,0.000050
926.2435,-0.000009
928.1071,-0.000071
929.9708,-0.000059
931.8345,-0.000077
933.6981,-0.000087
935.5618,-0.000079
937.4255,-0.000070
939.2891,-0.000030
941.1528,0.000000
943.0165,-0.000014
944.8801,-0.000030
946.7438,-0.000038
948.6075,0.000026
950.4711,0.000091
952.3348,0.000111
954.1985,0.000076
956.0622,0.000141
957.9258,0.000202
959.7895,0.000235
961.6532,0.000278
963.5168,0.000301
965.3805,0.000325
967.2442,0.000385
969.1078,0.000413
970.9715,0.000487
972.8352,0.000592
974.6988,0.000629
976.5625,0.000670
978.4262,0.000802
980.2899,0.000888
982.1535,0.000930
984.0172,0.000961
985.8809,0.000992
987.7445,0.001022
989.6082,0.001114
991.4719,0.001243
993.3355,0.001355
995.1992,0.001406
997.0629,0.001463
998.9265,0.001556
1000.7902,0.001661
1002.6539,0.001798
1004.5175,0.001962
1006.3812,0.002075
1008.2449,0.002206
1010.1086,0.002368
1011.9722,0.002584
1013.8359,0.002799
1015.6996,0.002889
1017.5632,0.002900
1019.4269,0.002996
1021.2906,0.003085
1023.1542,0.003161
1025.0179,0.003234
1026.8816,0.003299
1028.7452,0.003296
1030.6089,0.003271
1032.4726,0.003280
1034.3362,0.003352
1036.1999,0.003420
1038.0636,0.003433
1039.9273,0.003429
1041.7909,0.003503
1043.6546,0.003557
1045.5183,0.003592
1047.3819,0.003636
1049.2456,0.003645
1051.1093,0.003604
1052.9729,0.003604
1054.8366,0.003609
1056.7003,0.003657
1058.5639,0.003634
1060.4276,0.003536
1062.2913,0.003502
1064.1550,0.003564
1066.0186,0.003623
1067.8823,0.003569
1069.7460,0.003464
1071.6096,0.003494
1073.4733,0.003586
1075.3370,0.003629
1077.2006,0.003576
1079.0643,0.003501
1080.9280,0.003459
1082.7916,0.003436
1084.6553,0.003395
1086.5190,0.003364
1088.3826,0.003289
1090.2463,0.003209
1092.1100,0.003134
1093.9737,0.003119
1095.8373,0.003091
1097.7010,0.003066
1099.5647,0.003052
1101.4283,0.003035
1103.2920,0.002955
1105.1557,0.002888
1107.0193,0.002835
1108.8830,0.002777
1110.7467,0.002721
1112.6103,0.002624
1114.4740,0.002470
1116.3377,0.002362
1118.2014,0.002250
1120.0650,0.002151
1121.9287,0.002051
1123.7924,0.001945
1125.6560,0.001844
1127.5197,0.001759
1129.3834,0.001662
1131.2470,0.001594
1133.1107,0.001520
1134.9744,0.001436
1136.8380,0.001377
1138.7017,0.001355
1140.5654,0.001320
1142.4290,0.001326
1144.2927,0.001319
1146.1564,0.001293
1148.0201,0.001270
1149.8837,0.001251
1151.7474,0.001227
1153.6111,0.001224
1155.4747,0.001215
1157.3384,0.001243
1159.2021,0.001272
1161.0657,0.001243
1162.9294,0.001165
1164.7931,0.001119
1166.6567,0.001074
1168.5204,0.001054
1170.3841,0.001009
1172.2477,0.000946
1174.1114,0.000893
1175.9751,0.000826
1177.8388,0.000762
1179.7024,0.000759
1181.5661,0.000745
1183.4298,0.000731
1185.2934,0.000730
1187.1571,0.000744
1189.0208,0.000742
1190.8844,0.000741
1192.7481,0.000757
1194.6118,0.000806
1196.4754,0.000836
1198.3391,0.000888
1200.2028,0.000919
1202.0665,0.000945
1203.9301,0.000957
1205.7938,0.000994
1207.6575,0.000972
1209.5211,0.000949
1211.3848,0.000967
1213.2485,0.000985
1215.1121,0.001023
1216.9758,0.001108
1218.8395,0.001156
1220.7031,0.001173
1222.5668,0.001189
1224.4305,0.001267
1226.2941,0.001321
1228.1578,0.001353
1230.0215,0.001355
1231.8852,0.001363
1233.7488,0.001367
1235.6125,0.001375
1237.4762,0.001403
1239.3398,0.001471
1241.2035,0.001489
1243.0672,0.001486
1244.9308,0.001502
1246.7945,0.001533
1248.6582,0.001545
1250.5218,0.001571
1252.3855,0.001581
1254.2492,0.001644
1256.1129,0.001795
1257.9765,0.001962
1259.8402,0.002003
1261.7039,0.001933
1263.5675,0.001858
1265.4312,0.001752
1267.2949,0.001598
1269.1585,0.001494
1271.0222,0.001410
1272.8859,0.001315
1274.7495,0.001227
1276.6132,0.001201
1278.4769,0.001201
1280.3405,0.001173
1282.2042,0.001125
1284.0679,0.001154
1285.9316,0.001213
1287.7952,0.001293
1289.6589,0.001272
1291.5226,0.001237
1293.3862,0.001230
1295.2499,0.001285
1297.1136,0.001300
1298.9772,0.001283
1300.8409,0.001288
1302.7046,0.001356
1304.5682,0.001377
1306.4319,0.001440
1308.2956,0.001518
1310.1592,0.001593
1312.0229,0.001720
1313.8866,0.001765
1315.7503,0.001758
1317.6139,0.001845
1319.4776,0.001770
1321.3413,0.001572
1323.2049,0.001462
1325.0686,0.001440
1326.9323,0.001465
1328.7959,0.001484
1330.6596,0.001480
1332.5233,0.001575
1334.3869,0.001748
1336.2506,0.002038
1338.1143,0.002343
1339.9780,0.002332
1341.8416,0.001826
1343.7053,0.001653
1345.5690,0.001619
1347.4326,0.001656
1349.2963,0.001642
1351.1600,0.001644
1353.0236,0.001686
1354.8873,0.001774
1356.7510,0.001762
1358.6146,0.001844
1360.4783,0.002189
1362.3420,0.002546
1364.2056,0.002111
1366.0693,0.001855
1367.9330,0.001962
1369.7967,0.002013
1371.6603,0.002235
1373.5240,0.002622
1375.3877,0.002327
1377.2513,0.002161
1379.1150,0.002127
1380.9787,0.002014
1382.8423,0.002078
1384.7060,0.002329
1386.5697,0.002720
1388.4333,0.002385
1390.2970,0.002309
1392.1607,0.002616
1394.0244,0.003185
1395.8880,0.003191
1397.7517,0.003240
1399.6154,0.002961
1401.4790,0.002486
1403.3427,0.002782
1405.2064,0.002723
1407.0700,0.002530
1408.9337,0.002491
1410.7974,0.002529
1412.6610,0.002423
1414.5247,0.002624
1416.3884,0.003058
1418.2520,0.003597
1420.1157,0.002768
1421.9794,0.002401
1423.8431,0.002448
1425.7067,0.002001
1427.5704,0.002122
1429.4341,0.002226
1431.2977,0.002192
1433.1614,0.002257
1435.0251,0.002653
1436.8887,0.002438
1438.7524,0.001641
1440.6161,0.001698
1442.4797,0.001519
1444.3434,0.001687
1446.2071,0.001955
1448.0707,0.002163
1449.9344,0.001897
1451.7981,0.002192
1453.6618,0.002510
1455.5254,0.003606
1457.3891,0.003067
1459.2528,0.002086
1461.1164,0.001732
1462.9801,0.001848
1464.8438,0.001821
1466.7074,0.001457
1468.5711,0.001545
1470.4348,0.002091
1472.2984,0.002692
1474.1621,0.002067
1476.0258,0.001813
1477.8895,0.001134
1479.7531,0.001059
1481.6168,0.001036
1483.4805,0.001029
1485.3441,0.001541
1487.2078,0.002109
1489.0715,0.002551
1490.9351,0.001950
1492.7988,0.001343
1494.6625,0.001838
1496.5261,0.002075
1498.3898,0.001975
1500.2535,0.001836
1502.1171,0.001890
1503.9808,0.002755
1505.8445,0.004323
1507.7082,0.004188
1509.5718,0.003386
1511.4355,0.003031
1513.2992,0.002688
1515.1628,0.003278
1517.0265,0.003686
1518.8902,0.003704
1520.7538,0.004409
1522.6175,0.003622
1524.4812,0.003621
1526.3448,0.003402
1528.2085,0.003203
1530.0722,0.003122
1531.9359,0.003470
1533.7995,0.003729
1535.6632,0.003451
1537.5269,0.004460
1539.3905,0.005250
1541.2542,0.005287
1543.1179,0.004668
1544.9815,0.004087
1546.8452,0.003333
1548.7089,0.003697
1550.5725,0.003578
1552.4362,0.003808
1554.2999,0.004206
1556.1635,0.004559
1558.0272,0.005667
1559.8909,0.004148
1561.7546,0.003186
1563.6182,0.003238
1565.4819,0.002931
1567.3456,0.003119
1569.2092,0.003420
1571.0729,0.002738
1572.9366,0.002832
1574.8002,0.003183
1576.6639,0.002919
1578.5276,0.002383
1580.3912,0.002420
1582.2549,0.002157
1584.1186,0.002204
1585.9822,0.002092
1587.8459,0.002136
1589.7096,0.002131
1591.5733,0.002211
1593.4369,0.002247
1595.3006,0.002270
1597.1643,0.002143
1599.0279,0.002142
1600.8916,0.002214
1602.7553,0.002260
1604.6189,0.002199
1606.4826,0.002327
1608.3463,0.002436
1610.2099,0.002357
1612.0736,0.002323
1613.9373,0.002599
1615.8010,0.003218
1617.6646,0.002782
1619.5283,0.002780
1621.3920,0.003158
1623.2556,0.003351
1625.1193,0.003094
1626.9830,0.003244
1628.8466,0.002972
1630.7103,0.003174
1632.5740,0.003558
1634.4376,0.004378
1636.3013,0.004266
1638.1650,0.003899
1640.0286,0.003747
1641.8923,0.003678
1643.7560,0.004105
1645.6197,0.004852
1647.4833,0.005098
1649.3470,0.004735
1651.2107,0.005185
1653.0743,0.005278
1654.9380,0.004045
1656.8017,0.003840
1658.6653,0.003366
1660.5290,0.003445
1662.3927,0.003497
1664.2563,0.003020
1666.1200,0.003159
1667.9837,0.003544
1669.8474,0.003535
1671.7110,0.003230
1673.5747,0.003114
1675.4384,0.002707
1677.3020,0.002103
1679.1657,0.002637
1681.0294,0.002620
1682.8930,0.003724
1684.7567,0.002804
1686.6204,0.001847
1688.4840,0.001746
1690.3477,0.001228
1692.2114,0.001072
1694.0750,0.001584
1695.9387,0.001839
1697.8024,0.001738
1699.6661,0.002294
1701.5297,0.000325
1703.3934,0.000870
1705.2571,0.000712
1707.1207,0.000125
1708.9844,0.000067
1710.8481,0.000051
1712.7117,0.000510
1714.5754,0.001245
1716.4391,0.001547
1718.3027,0.000747
1720.1664,-0.000301
1722.0301,-0.000108
1723.8937,-0.000415
1725.7574,-0.000365
1727.6211,-0.000211
1729.4848,0.000339
1731.3484,0.000738
1733.2121,0.001471
1735.0758,0.000231
1736.9394,0.000219
1738.8031,0.000519
1740.6668,0.000108
1742.5304,0.000414
1744.3941,0.000498
1746.2578,0.000754
1748.1214,0.000941
1749.9851,0.000686
1751.8488,0.000115
1753.7125,-0.000357
1755.5761,-0.000008
1757.4398,-0.000209
1759.3035,-0.000122
1761.1671,-0.000114
1763.0308,-0.000452
1764.8945,-0.000510
1766.7581,-0.000203
1768.6218,-0.000005
1770.4855,0.000504
1772.3491,0.000314
1774.2128,-0.000211
1776.0765,-0.000238
1777.9401,-0.000513
1779.8038,-0.000245
1781.6675,-0.000410
1783.5312,-0.000278
1785.3948,-0.000626
1787.2585,-0.000602
1789.1222,-0.000219
1790.9858,0.000256
1792.8495,-0.000036
1794.7132,-0.000137
1796.5768,-0.000115
1798.4405,-0.000145
1800.3042,-0.000114
1802.1678,-0.000364
1804.0315,-0.000615
1805.8952,-0.000638
1807.7589,-0.000475
1809.6225,-0.000337
1811.4862,-0.000557
1813.3499,-0.000786
1815.2135,-0.000810
1817.0772,-0.000741
1818.9409,-0.000641
1820.8045,-0.000633
1822.6682,-0.000493
1824.5319,-0.000093
1826.3955,-0.000195
1828.2592,0.000068
1830.1229,-0.000164
1831.9865,-0.000567
1833.8502,-0.000647
1835.7139,-0.000696
1837.5776,-0.000573
1839.4412,-0.000628
1841.3049,-0.000415
1843.1686,-0.000017
1845.0322,-0.000254
1846.8959,-0.000321
1848.7596,-0.000438
1850.6232,-0.000749
1852.4869,-0.000825
1854.3506,-0.000891
1856.2142,-0.000645
1858.0779,-0.000642
1859.9416,-0.000593
1861.8052,-0.000754
1863.6689,-0.000622
1865.5326,-0.000364
1867.3963,-0.000031
1869.2599,-0.000191
1871.1236,-0.000361
1872.9873,-0.000625
1874.8509,-0.000807
1876.7146,-0.000767
1878.5783,-0.000781
1880.4419,-0.000930
1882.3056,-0.000861
1884.1693,-0.000772
1886.0329,-0.000672
1887.8966,-0.000431
1889.7603,-0.000320
1891.6240,-0.000487
1893.4876,-0.000419
1895.3513,-0.000496
1897.2150,-0.000512
1899.0786,-0.000750
1900.9423,-0.000734
1902.8060,-0.000711
1904.6696,-0.000525
1906.5333,-0.000401
1908.3970,-0.000407
1910.2606,-0.000607
1912.1243,-0.000601
1913.9880,-0.000703
1915.8516,-0.000487
1917.7153,-0.000307
1919.5790,-0.000451
1921.4427,-0.000274
1923.3063,-0.000109
1925.1700,-0.000278
1927.0337,-0.000600
1928.8973,-0.000717
1930.7610,-0.000601
1932.6247,-0.000784
1934.4883,-0.000761
1936.3520,-0.000753
1938.2157,-0.000678
1940.0793,-0.000520
1941.9430,-0.000263
1943.8067,-0.000566
1945.6704,-0.000526
1947.5340,-0.000561
1949.3977,-0.000410
1951.2614,-0.000471
1953.1250,-0.000333
1954.9887,-0.000334
1956.8524,-0.000399
1958.7160,-0.000941
1960.5797,-0.000929
1962.4434,-0.000563
1964.3070,-0.000133
1966.1707,-0.000265
1968.0344,-0.000506
1969.8980,-0.000617
1971.7617,-0.000633
1973.6254,-0.000887
1975.4891,-0.000901
1977.3527,-0.000435
1979.2164,0.000345
1981.0801,0.000072
1982.9437,-0.000160
1984.8074,-0.000101
1986.6711,0.000275
1988.5347,0.000168
1990.3984,0.000145
1992.2621,-0.000171
1994.1257,-0.000436
1995.9894,-0.000386
1997.8531,-0.000285
1999.7167,-0.000740
2001.5804,-0.000666
2003.4441,-0.000591
2005.3078,-0.001028
2007.1714,-0.001197
2009.0351,-0.000354
2010.8988,-0.000654
2012.7624,-0.001370
2014.6261,-0.001403
2016.4898,-0.001513
2018.3534,-0.001627
2020.2171,-0.000734
2022.0808,-0.000770
2023.9444,-0.000976
2025.8081,-0.000921
2027.6718,-0.000693
2029.5355,-0.000574
2031.3991,-0.000520
2033.2628,-0.000743
2035.1265,-0.000613
2036.9901,-0.000425
2038.8538,-0.000336
2040.7175,-0.000512
2042.5811,-0.000359
2044.4448,0.000005
2046.3085,0.000083
2048.1721,-0.000369
2050.0358,-0.000434
2051.8995,-0.000285
2053.7631,-0.000352
2055.6268,-0.000427
2057.4905,-0.000360
2059.3542,-0.000689
2061.2178,-0.000627
2063.0815,-0.000202
2064.9452,-0.000191
2066.8088,-0.000721
2068.6725,-0.000612
2070.5362,-0.000342
2072.3998,-0.000250
2074.2635,-0.000273
2076.1272,-0.000381
2077.9908,-0.000444
2079.8545,-0.000481
2081.7182,-0.000591
2083.5819,-0.000384
2085.4455,-0.000373
2087.3092,-0.000484
2089.1729,-0.000529
2091.0365,-0.000534
2092.9002,-0.000574
2094.7639,-0.000729
2096.6275,-0.000829
2098.4912,-0.000869
2100.3549,-0.000828
2102.2185,-0.000460
2104.0822,-0.000392
2105.9459,-0.000226
2107.8095,-0.000038
2109.6732,-0.000167
2111.5369,-0.000325
2113.4006,-0.000461
2115.2642,-0.000745
2117.1279,-0.000818
2118.9916,-0.000737
2120.8552,-0.000751
2122.7189,-0.000863
2124.5826,-0.000749
2126.4462,-0.000880
2128.3099,-0.001231
2130.1736,-0.001369
2132.0372,-0.001305
2133.9009,-0.001287
2135.7646,-0.001437
2137.6282,-0.001411
2139.4919,-0.001003
2141.3556,-0.001216
2143.2193,-0.001072
2145.0829,-0.000850
2146.9466,-0.001443
2148.8103,-0.001435
2150.6739,-0.000758
2152.5376,-0.000628
2154.4013,-0.001107
2156.2649,-0.001583
2158.1286,-0.001089
2159.9923,0.000296
2161.8559,0.000739
2163.7196,0.000457
2165.5833,0.000562
2167.4470,0.000715
2169.3106,0.000527
2171.1743,-0.000074
2173.0380,-0.000255
2174.9016,0.000027
2176.7653,0.000125
2178.6290,-0.000207
2180.4926,-0.000219
2182.3563,-0.000121
2184.2200,-0.000095
2186.0836,-0.000198
2187.9473,0.000262
2189.8110,0.000467
2191.6746,0.000048
2193.5383,-0.000580
2195.4020,-0.000297
2197.2657,-0.000032
2199.1293,-0.000189
2200.9930,-0.000271
2202.8567,-0.000248
2204.7203,-0.000376
2206.5840,-0.000379
2208.4477,-0.000006
2210.3113,0.000312
2212.1750,-0.000043
2214.0387,-0.000321
2215.9023,-0.000315
2217.7660,-0.000036
2219.6297,-0.000075
2221.4934,-0.000296
2223.3570,-0.000279
2225.2207,-0.000252
2227.0844,-0.000288
2228.9480,-0.000019
2230.8117,-0.000020
2232.6754,-0.000099
2234.5390,-0.000245
2236.4027,-0.000228
2238.2664,-0.000186
2240.1300,-0.000090
2241.9937,-0.000174
2243.8574,-0.000300
2245.7210,-0.000305
2247.5847,-0.000241
2249.4484,-0.000277
2251.3121,-0.000198
2253.1757,-0.000244
2255.0394,-0.000371
2256.9031,-0.000309
2258.7667,-0.000111
2260.6304,0.000022
2262.4941,0.000218
2264.3577,0.000162
2266.2214,0.000160
2268.0851,0.000251
2269.9487,0.000320
2271.8124,0.000364
2273.6761,0.000215
2275.5397,-0.000054
2277.4034,-0.000132
2279.2671,0.000082
2281.1308,0.000248
2282.9944,0.000298
2284.8581,0.000367
2286.7218,0.000426
2288.5854,0.000495
2290.4491,0.000405
2292.3128,0.000398
2294.1764,0.000571
2296.0401,0.000864
2297.9038,0.001003
2299.7674,0.001039
2301.6311,0.001184
2303.4948,0.001517
2305.3585,0.001841
2307.2221,0.002207
2309.0858,0.002600
2310.9495,0.002961
2312.8131,0.003257
2314.6768,0.003348
2316.5405,0.003652
2318.4041,0.004061
2320.2678,0.004711
2322.1315,0.005376
2323.9951,0.005650
2325.8588,0.005543
2327.7225,0.005239
2329.5861,0.005420
2331.4498,0.005441
2333.3135,0.005421
2335.1772,0.005491
2337.0408,0.005477
2338.9045,0.005735
2340.7682,0.005844
2342.6318,0.005674
2344.4955,0.005451
2346.3592,0.004763
2348.2228,0.004355
2350.0865,0.004663
2351.9502,0.005488
2353.8138,0.006626
2355.6775,0.007217
2357.5412,0.007999
2359.4049,0.008359
2361.2685,0.008416
2363.1322,0.007940
2364.9959,0.007350
2366.8595,0.006587
2368.7232,0.005778
2370.5869,0.005231
2372.4505,0.004402
2374.3142,0.003391
2376.1779,0.002514
2378.0415,0.001908
2379.9052,0.001277
2381.7689,0.000558
2383.6325,-0.000015
2385.4962,-0.000362
2387.3599,-0.000680
2389.2236,-0.000796
2391.0872,-0.000792
2392.9509,-0.000903
2394.8146,-0.000976
2396.6782,-0.000884
2398.5419,-0.000796
2400.4056,-0.000807
2402.2692,-0.000841
2404.1329,-0.000712
2405.9966,-0.000717
2407.8602,-0.000715
2409.7239,-0.000670
2411.5876,-0.000684
2413.4512,-0.000716
2415.3149,-0.000690
2417.1786,-0.000669
2419.0423,-0.000571
2420.9059,-0.000494
2422.7696,-0.000584
2424.6333,-0.000607
2426.4969,-0.000591
2428.3606,-0.000660
2430.2243,-0.000559
2432.0879,-0.000525
2433.9516,-0.000585
2435.8153,-0.000587
2437.6789,-0.000591
2439.5426,-0.000573
2441.4063,-0.000531
2443.2700,-0.000479
2445.1336,-0.000475
2446.9973,-0.000479
2448.8610,-0.000414
2450.7246,-0.000477
2452.5883,-0.000588
2454.4520,-0.000575
2456.3156,-0.000567
2458.1793,-0.000591
2460.0430,-0.000565
2461.9066,-0.000586
2463.7703,-0.000496
2465.6340,-0.000514
2467.4976,-0.000562
2469.3613,-0.000490
2471.2250,-0.000558
2473.0887,-0.000648
2474.9523,-0.000683
2476.8160,-0.000666
2478.6797,-0.000667
2480.5433,-0.000593
2482.4070,-0.000475
2484.2707,-0.000448
2486.1343,-0.000456
2487.9980,-0.000540
2489.8617,-0.000516
2491.7253,-0.000310
2493.5890,-0.000446
2495.4527,-0.000680
2497.3164,-0.000449
2499.1800,-0.000315
2501.0437,-0.000407
2502.9074,-0.000495
2504.7710,-0.000462
2506.6347,-0.000415
2508.4984,-0.000308
2510.3620,-0.000301
2512.2257,-0.000326
2514.0894,-0.000311
2515.9530,-0.000358
2517.8167,-0.000337
2519.6804,-0.000334
2521.5440,-0.000526
2523.4077,-0.000535
2525.2714,-0.000516
2527.1351,-0.000544
2528.9987,-0.000542
2530.8624,-0.000516
2532.7261,-0.000411
2534.5897,-0.000351
2536.4534,-0.000459
2538.3171,-0.000572
2540.1807,-0.000531
2542.0444,-0.000436
2543.9081,-0.000405
2545.7717,-0.000439
2547.6354,-0.000507
2549.4991,-0.000439
2551.3627,-0.000417
2553.2264,-0.000446
2555.0901,-0.000399
2556.9538,-0.000450
2558.8174,-0.000511
2560.6811,-0.000463
2562.5448,-0.000496
2564.4084,-0.000471
2566.2721,-0.000427
2568.1358,-0.000412
2569.9994,-0.000466
2571.8631,-0.000489
2573.7268,-0.000360
2575.5904,-0.000301
2577.4541,-0.000393
2579.3178,-0.000448
2581.1815,-0.000452
2583.0451,-0.000484
2584.9088,-0.000583
2586.7725,-0.000588
2588.6361,-0.000493
2590.4998,-0.000393
2592.3635,-0.000414
2594.2271,-0.000547
2596.0908,-0.000559
2597.9545,-0.000453
2599.8181,-0.000365
2601.6818,-0.000380
2603.5455,-0.000500
2605.4091,-0.000498
2607.2728,-0.000450
2609.1365,-0.000487
2611.0002,-0.000574
2612.8638,-0.000569
2614.7275,-0.000541
2616.5912,-0.000508
2618.4548,-0.000538
2620.3185,-0.000661
2622.1822,-0.000596
2624.0458,-0.000474
2625.9095,-0.000417
2627.7732,-0.000426
2629.6368,-0.000470
2631.5005,-0.000454
2633.3642,-0.000418
2635.2279,-0.000410
2637.0915,-0.000450
2638.9552,-0.000501
2640.8189,-0.000552
2642.6825,-0.000608
2644.5462,-0.000589
2646.4099,-0.000526
2648.2735,-0.000583
2650.1372,-0.000667
2652.0009,-0.000620
2653.8645,-0.000585
2655.7282,-0.000645
2657.5919,-0.000730
2659.4555,-0.000784
2661.3192,-0.000736
2663.1829,-0.000765
2665.0466,-0.000872
2666.9102,-0.000895
2668.7739,-0.000846
2670.6376,-0.000830
2672.5012,-0.000815
2674.3649,-0.000843
2676.2286,-0.000853
2678.0922,-0.000833
2679.9559,-0.000756
2681.8196,-0.000771
2683.6832,-0.000902
2685.5469,-0.000882
2687.4106,-0.000773
2689.2742,-0.000822
2691.1379,-0.000854
2693.0016,-0.000787
2694.8653,-0.000741
2696.7289,-0.000742
2698.5926,-0.000743
2700.4563,-0.000743
2702.3199,-0.000687
2704.1836,-0.000664
2706.0473,-0.000702
2707.9109,-0.000712
2709.7746,-0.000685
2711.6383,-0.000680
2713.5019,-0.000697
2715.3656,-0.000672
2717.2293,-0.000612
2719.0930,-0.000597
2720.9566,-0.000613
2722.8203,-0.000635
2724.6840,-0.000640
2726.5476,-0.000592
2728.4113,-0.000625
2730.2750,-0.000681
2732.1386,-0.000578
2734.0023,-0.000469
2735.8660,-0.000490
2737.7296,-0.000592
2739.5933,-0.000641
2741.4570,-0.000613
2743.3206,-0.000522
2745.1843,-0.000590
2747.0480,-0.000660
2748.9117,-0.000593
2750.7753,-0.000563
2752.6390,-0.000573
2754.5027,-0.000530
2756.3663,-0.000545
2758.2300,-0.000564
2760.0937,-0.000569
2761.9573,-0.000529
2763.8210,-0.000515
2765.6847,-0.000506
2767.5483,-0.000504
2769.4120,-0.000465
2771.2757,-0.000423
2773.1394,-0.000437
2775.0030,-0.000525
2776.8667,-0.000555
2778.7304,-0.000512
2780.5940,-0.000500
2782.4577,-0.000439
2784.3214,-0.000383
2786.1850,-0.000367
2788.0487,-0.000344
2789.9124,-0.000321
2791.7760,-0.000322
2793.6397,-0.000356
2795.5034,-0.000363
2797.3670,-0.000339
2799.2307,-0.000293
2801.0944,-0.000265
2802.9581,-0.000258
2804.8217,-0.000228
2806.6854,-0.000183
2808.5491,-0.000217
2810.4127,-0.000214
2812.2764,-0.000188
2814.1401,-0.000154
2816.0037,-0.000098
2817.8674,-0.000065
2819.7311,-0.000130
2821.5947,-0.000111
2823.4584,-0.000055
2825.3221,-0.000096
2827.1857,-0.000100
2829.0494,-0.000034
2830.9131,0.000039
2832.7768,0.000074
2834.6404,0.000061
2836.5041,0.000114
2838.3678,0.000210
2840.2314,0.000250
2842.0951,0.000288
2843.9588,0.000352
2845.8224,0.000412
2847.6861,0.000567
2849.5498,0.000555
2851.4134,0.000418
2853.2771,0.000417
2855.1408,0.000517
2857.0045,0.000542
2858.8681,0.000558
2860.7318,0.000565
2862.5955,0.000610
2864.4591,0.000678
2866.3228,0.000669
2868.1865,0.000691
2870.0501,0.000692
2871.9138,0.000622
2873.7775,0.000602
2875.6411,0.000676
2877.5048,0.000682
2879.3685,0.000744
2881.2321,0.000785
2883.0958,0.000780
2884.9595,0.000817
2886.8232,0.000884
2888.6868,0.000891
2890.5505,0.000798
2892.4142,0.000769
2894.2778,0.000820
2896.1415,0.000944
2898.0052,0.001015
2899.8688,0.001044
2901.7325,0.001125
2903.5962,0.001240
2905.4598,0.001213
2907.3235,0.001242
2909.1872,0.001285
2911.0509,0.001259
2912.9145,0.001237
2914.7782,0.001323
2916.6419,0.001351
2918.5055,0.001323
2920.3692,0.001389
2922.2329,0.001420
2924.0965,0.001326
2925.9602,0.001242
2927.8239,0.001189
2929.6875,0.001209
2931.5512,0.001234
2933.4149,0.001181
2935.2785,0.001132
2937.1422,0.001173
2939.0059,0.001113
2940.8696,0.000994
2942.7332,0.000930
2944.5969,0.000914
2946.4606,0.000942
2948.3242,0.000953
2950.1879,0.000912
2952.0516,0.001031
2953.9152,0.001093
2955.7789,0.001103
2957.6426,0.001119
2959.5062,0.001079
2961.3699,0.001112
2963.2336,0.001045
2965.0972,0.000964
2966.9609,0.000956
2968.8246,0.000934
2970.6883,0.000950
2972.5519,0.000862
2974.4156,0.000751
2976.2793,0.000745
2978.1429,0.000832
2980.0066,0.000811
2981.8703,0.000759
2983.7339,0.000692
2985.5976,0.000570
2987.4613,0.000579
2989.3249,0.000657
2991.1886,0.000710
2993.0523,0.000721
2994.9160,0.000795
2996.7796,0.000790
2998.6433,0.000598
3000.5070,0.000502
3002.3706,0.000488
3004.2343,0.000513
3006.0980,0.000580
3007.9616,0.000558
3009.8253,0.000511
3011.6890,0.000435
3013.5526,0.000410
3015.4163,0.000537
3017.2800,0.000541
3019.1436,0.000424
3021.0073,0.000390
3022.8710,0.000449
3024.7347,0.000413
3026.5983,0.000479
3028.4620,0.000488
3030.3257,0.000404
3032.1893,0.000401
3034.0530,0.000432
3035.9167,0.000492
3037.7803,0.000500
3039.6440,0.000402
3041.5077,0.000400
3043.3713,0.000497
3045.2350,0.000585
3047.0987,0.000442
3048.9624,0.000408
3050.8260,0.000481
3052.6897,0.000530
3054.5534,0.000545
3056.4170,0.000533
3058.2807,0.000563
3060.1444,0.000611
3062.0080,0.000601
3063.8717,0.000673
3065.7354,0.000701
3067.5990,0.000650
3069.4627,0.000619
3071.3264,0.000591
3073.1900,0.000631
3075.0537,0.000702
3076.9174,0.000663
3078.7811,0.000572
3080.6447,0.000613
3082.5084,0.000709
3084.3721,0.000582
3086.2357,0.000580
3088.0994,0.000671
3089.9631,0.000784
3091.8267,0.000775
3093.6904,0.000653
3095.5541,0.000661
3097.4177,0.000792
3099.2814,0.000799
3101.1451,0.000784
3103.0087,0.000729
3104.8724,0.000784
3106.7361,0.000788
3108.5998,0.000816
3110.4634,0.000839
3112.3271,0.000800
3114.1908,0.000774
3116.0544,0.000845
3117.9181,0.000870
3119.7818,0.000841
3121.6454,0.000803
3123.5091,0.000826
3125.3728,0.000899
3127.2364,0.000993
3129.1001,0.001048
3130.9638,0.000998
3132.8275,0.000999
3134.6911,0.001010
3136.5548,0.000984
3138.4185,0.001071
3140.2821,0.001022
3142.1458,0.000944
3144.0095,0.000966
3145.8731,0.000963
3147.7368,0.000999
3149.6005,0.001039
3151.4641,0.001030
3153.3278,0.001068
3155.1915,0.001104
3157.0551,0.001088
3158.9188,0.001070
3160.7825,0.001086
3162.6462,0.001112
3164.5098,0.001164
3166.3735,0.001055
3168.2372,0.001163
3170.1008,0.001341
3171.9645,0.001321
3173.8282,0.001333
3175.6918,0.001397
3177.5555,0.001504
3179.4192,0.001467
3181.2828,0.001358
3183.1465,0.001452
3185.0102,0.001474
3186.8739,0.001421
3188.7375,0.001398
3190.6012,0.001372
3192.4649,0.001372
3194.3285,0.001456
3196.1922,0.001493
3198.0559,0.001462
3199.9195,0.001501
3201.7832,0.001613
3203.6469,0.001590
3205.5105,0.001567
3207.3742,0.001629
3209.2379,0.001716
3211.1015,0.001797
3212.9652,0.001796
3214.8289,0.001680
3216.6926,0.001675
3218.5562,0.001706
3220.4199,0.001780
3222.2836,0.001698
3224.1472,0.001657
3226.0109,0.001811
3227.8746,0.001908
3229.7382,0.001842
3231.6019,0.001876
3233.4656,0.001840
3235.3292,0.001813
3237.1929,0.002006
3239.0566,0.001995
3240.9202,0.001756
3242.7839,0.001687
3244.6476,0.001891
3246.5113,0.002183
3248.3749,0.002112
3250.2386,0.002029
3252.1023,0.002022
3253.9659,0.001922
3255.8296,0.001933
3257.6933,0.001893
3259.5569,0.001858
3261.4206,0.001930
3263.2843,0.002022
3265.1479,0.002183
3267.0116,0.002221
3268.8753,0.002059
3270.7390,0.002008
3272.6026,0.002105
3274.4663,0.002134
3276.3300,0.002148
3278.1936,0.002032
3280.0573,0.002081
3281.9210,0.002198
3283.7846,0.002141
3285.6483,0.002113
3287.5120,0.002306
3289.3756,0.002343
3291.2393,0.002284
3293.1030,0.002198
3294.9666,0.002058
3296.8303,0.002054
3298.6940,0.002166
3300.5577,0.002023
3302.4213,0.002042
3304.2850,0.002079
3306.1487,0.001993
3308.0123,0.002084
3309.8760,0.002013
3311.7397,0.001842
3313.6033,0.001909
3315.4670,0.001989
3317.3307,0.002067
3319.1943,0.002086
3321.0580,0.002097
3322.9217,0.002162
3324.7854,0.002147
3326.6490,0.002027
3328.5127,0.001989
3330.3764,0.002041
3332.2400,0.001969
3334.1037,0.001821
3335.9674,0.001876
3337.8310,0.001863
3339.6947,0.001790
3341.5584,0.001767
3343.4220,0.001902
3345.2857,0.001868
3347.1494,0.001732
3349.0130,0.001754
3350.8767,0.001933
3352.7404,0.001779
3354.6041,0.001603
3356.4677,0.001701
3358.3314,0.001841
3360.1951,0.001822
3362.0587,0.001636
3363.9224,0.001622
3365.7861,0.001821
3367.6497,0.001832
3369.5134,0.001696
3371.3771,0.001673
3373.2407,0.001563
3375.1044,0.001384
3376.9681,0.001608
3378.8317,0.001786
3380.6954,0.001868
3382.5591,0.001765
3384.4228,0.001549
3386.2864,0.001491
3388.1501,0.001489
3390.0138,0.001495
3391.8774,0.001527
3393.7411,0.001497
3395.6048,0.001501
3397.4684,0.001421
3399.3321,0.001430
3401.1958,0.001394
3403.0594,0.001342
3404.9231,0.001321
3406.7868,0.001424
3408.6505,0.001401
3410.5141,0.001256
3412.3778,0.001250
3414.2415,0.001285
3416.1051,0.001310
3417.9688,0.001477
3419.8325,0.001431
3421.6961,0.001369
3423.5598,0.001135
3425.4235,0.000945
3427.2871,0.000910
3429.1508,0.000981
3431.0145,0.000908
3432.8781,0.000914
3434.7418,0.000996
3436.6055,0.000999
3438.4692,0.000971
3440.3328,0.000946
3442.1965,0.000901
3444.0602,0.001062
3445.9238,0.001084
3447.7875,0.001119
3449.6512,0.001127
3451.5148,0.000977
3453.3785,0.000942
3455.2422,0.000861
3457.1058,0.000792
3458.9695,0.000717
3460.8332,0.000594
3462.6969,0.000618
3464.5605,0.000662
3466.4242,0.000688
3468.2879,0.000702
3470.1515,0.000660
3472.0152,0.000508
3473.8789,0.000390
3475.7425,0.000515
3477.6062,0.000570
3479.4699,0.000432
3481.3335,0.000360
3483.1972,0.000391
3485.0609,0.000339
3486.9245,0.000184
3488.7882,0.000351
3490.6519,0.000288
3492.5156,0.000118
3494.3792,0.000077
3496.2429,0.000081
3498.1066,0.000041
3499.9702,0.000037
3501.8339,0.000136
3503.6976,0.000223
3505.5612,0.000199
3507.4249,0.000120
3509.2886,-0.000111
3511.1522,-0.000142
3513.0159,-0.000229
3514.8796,-0.000245
3516.7432,-0.000367
3518.6069,-0.000455
3520.4706,-0.000456
3522.3343,-0.000538
3524.1979,-0.000282
3526.0616,0.000000
3527.9253,-0.000172
3529.7889,-0.000307
3531.6526,-0.000546
3533.5163,-0.000637
3535.3799,-0.000745
3537.2436,-0.000606
3539.1073,-0.000661
3540.9709,-0.000770
3542.8346,-0.000521
3544.6983,-0.000208
3546.5620,-0.000115
3548.4256,-0.000256
3550.2893,-0.000587
3552.1530,-0.000682
3554.0166,-0.000596
3555.8803,-0.000764
3557.7440,-0.000705
3559.6076,-0.000514
3561.4713,-0.000413
3563.3350,-0.000301
3565.1986,-0.000125
3567.0623,0.000063
3568.9260,-0.000122
3570.7896,-0.000691
3572.6533,-0.000938
3574.5170,-0.000896
3576.3807,-0.000814
3578.2443,-0.000656
3580.1080,-0.000814
3581.9717,-0.000750
3583.8353,-0.000618
3585.6990,-0.000261
3587.5627,0.000130
3589.4263,0.000548
3591.2900,-0.000226
3593.1537,-0.000516
3595.0173,-0.000029
3596.8810,0.000025
3598.7447,-0.000257
3600.6084,-0.000198
3602.4720,-0.000228
3604.3357,-0.000497
3606.1994,-0.000580
3608.0630,-0.000113
3609.9267,0.000145
3611.7904,-0.000209
3613.6540,-0.000176
3615.5177,0.000261
3617.3814,-0.000100
3619.2450,0.000283
3621.1087,0.000151
3622.9724,-0.000316
3624.8360,-0.000329
3626.6997,0.000241
3628.5634,0.000302
3630.4271,0.000597
3632.2907,-0.000349
3634.1544,-0.000701
3636.0181,-0.000647
3637.8817,-0.001125
3639.7454,-0.000719
3641.6091,-0.000550
3643.4727,-0.000115
3645.3364,-0.000113
3647.2001,-0.000106
3649.0637,0.000860
3650.9274,0.000619
3652.7911,0.000006
3654.6547,-0.000718
3656.5184,-0.000484
3658.3821,-0.000432
3660.2458,-0.001215
3662.1094,-0.001014
3663.9731,-0.000987
3665.8368,-0.000722
3667.7004,-0.000506
3669.5641,-0.000122
3671.4278,0.000523
3673.2914,0.000178
3675.1551,-0.000313
3677.0188,0.000775
3678.8824,-0.000639
3680.7461,-0.000628
3682.6098,-0.000655
3684.4735,-0.000858
3686.3371,-0.000315
3688.2008,-0.000361
3690.0645,0.000251
3691.9281,-0.000225
3693.7918,-0.000281
3695.6555,-0.000673
3697.5191,-0.000558
3699.3828,-0.000654
3701.2465,-0.000740
3703.1101,-0.000555
3704.9738,-0.000841
3706.8375,-0.000757
3708.7011,-0.000159
3710.5648,0.000155
3712.4285,0.000286
3714.2922,-0.000299
3716.1558,-0.000685
3718.0195,-0.000514
3719.8832,-0.000056
3721.7468,-0.000085
3723.6105,0.000301
3725.4742,0.000111
3727.3378,0.000084
3729.2015,0.000051
3731.0652,0.000046
3732.9288,0.000720
3734.7925,0.000793
3736.6562,0.000915
3738.5199,0.000924
3740.3835,-0.000135
3742.2472,0.000325
3744.1109,0.000092
3745.9745,0.001431
3747.8382,-0.000068
3749.7019,0.000349
3751.5655,0.000726
3753.4292,-0.000193
3755.2929,-0.000553
3757.1565,-0.000804
3759.0202,-0.000369
3760.8839,-0.000542
3762.7475,-0.000771
3764.6112,-0.001309
3766.4749,-0.000686
3768.3386,-0.001151
3770.2022,-0.001126
3772.0659,-0.000623
3773.9296,-0.001219
3775.7932,-0.001096
3777.6569,-0.001065
3779.5206,-0.000873
3781.3842,-0.000643
3783.2479,-0.001244
3785.1116,-0.001240
3786.9752,-0.001139
3788.8389,-0.001359
3790.7026,-0.001267
3792.5662,-0.001221
3794.4299,-0.001022
3796.2936,-0.001006
3798.1573,-0.000414
3800.0209,-0.000641
3801.8846,-0.000307
3803.7483,0.000023
3805.6119,-0.001150
3807.4756,-0.000611
3809.3393,-0.000686
3811.2029,-0.001573
3813.0666,-0.001026
3814.9303,-0.001089
3816.7939,-0.000492
3818.6576,-0.000186
3820.5213,-0.000743
3822.3850,0.000192
3824.2486,-0.000900
3826.1123,-0.001267
3827.9760,-0.000494
3829.8396,-0.000839
3831.7033,-0.000691
3833.5670,-0.000255
3835.4306,-0.000560
3837.2943,-0.000139
3839.1580,-0.000138
3841.0216,-0.000282
3842.8853,-0.001098
3844.7490,-0.001067
3846.6126,-0.001246
3848.4763,-0.001081
3850.3400,-0.000330
3852.2037,0.000102
3854.0673,0.000100
3855.9310,-0.000548
3857.7947,-0.001298
3859.6583,-0.000644
3861.5220,-0.000804
3863.3857,-0.000405
3865.2493,-0.000601
3867.1130,-0.000206
3868.9767,-0.001024
3870.8403,0.000100
3872.7040,-0.000555
3874.5677,-0.001050
3876.4314,-0.000601
3878.2950,-0.001127
3880.1587,-0.000640
3882.0224,-0.000384
3883.8860,-0.000841
3885.7497,-0.000859
3887.6134,-0.000634
3889.4770,-0.001386
3891.3407,-0.000919
3893.2044,-0.000768
3895.0680,-0.001153
3896.9317,-0.000953
3898.7954,-0.000746
3900.6590,-0.000208
3902.5227,-0.000585
3904.3864,-0.000637
3906.2501,-0.000814
3908.1137,-0.001537
3909.9774,-0.001575
3911.8411,-0.001534
3913.7047,-0.001438
3915.5684,-0.001277
3917.4321,-0.000813
3919.2957,-0.000875
3921.1594,-0.001155
3923.0231,-0.001267
3924.8867,-0.001360
3926.7504,-0.001127
3928.6141,-0.001363
3930.4777,-0.001172
3932.3414,-0.001192
3934.2051,-0.001122
3936.0688,-0.001446
3937.9324,-0.001507
3939.7961,-0.001377
3941.6598,-0.001298
3943.5234,-0.000992
3945.3871,-0.001013
3947.2508,-0.001348
3949.1144,-0.001185
3950.9781,-0.001233
3952.8418,-0.001406
3954.7054,-0.001532
3956.5691,-0.001520
3958.4328,-0.001452
3960.2965,-0.001428
3962.1601,-0.001501
3964.0238,-0.001572
3965.8875,-0.001808
3967.7511,-0.001704
3969.6148,-0.001580
3971.4785,-0.001626
3973.3421,-0.001616
3975.2058,-0.001506
3977.0695,-0.001558
3978.9331,-0.001601
3980.7968,-0.001519
3982.6605,-0.001389
3984.5241,-0.001579
3986.3878,-0.001640
3988.2515,-0.001634
3990.1152,-0.001589
3991.9788,-0.001483
3993.8425,-0.001500
3995.7062,-0.001533
3997.5698,-0.001547
3999.4335,-0.001674
